#wvl [um]      Flux [erg/s/cm]
5.5            69159.8029        
5.496976663    69201.7967        
5.493956648    69244.0519        
5.490939949    69286.1601        
5.487926562    69328.078         
5.48491648     69370.3464        
5.481909698    69412.5488        
5.478906211    69454.6369        
5.475906014    69496.6266        
5.4729091      69537.9426        
5.469915465    69579.9551        
5.466925103    69622.5811        
5.463938009    69664.5769        
5.460954178    69706.3267        
5.457973603    69748.4681        
5.454996281    69790.3674        
5.452022205    69832.2549        
5.44905137     69874.1012        
5.446083771    69915.9913        
5.443119402    69957.7446        
5.440158259    69999.4478        
5.437200336    70041.2957        
5.434245628    70083.1606        
5.431294129    70124.9028        
5.428345835    70166.5252        
5.42540074     70208.2894        
5.422458839    70249.193         
5.419520126    70291.6764        
5.416584597    70333.3241        
5.413652247    70374.8813        
5.410723069    70416.509         
5.40779706     70457.613         
5.404874214    70499.6091        
5.401954525    70540.9082        
5.39903799     70582.7991        
5.396124601    70624.0888        
5.393214356    70665.8181        
5.390307248    70707.264         
5.387403272    70748.1662        
5.384502423    70789.6708        
5.381604697    70831.5465        
5.378710088    70872.9343        
5.375818591    70914.3767        
5.372930201    70955.6949        
5.370044913    70996.2816        
5.367162723    71038.2685        
5.364283624    71079.6576        
5.361407613    71120.8698        
5.358534684    71162.1326        
5.355664833    71203.4106        
5.352798054    71244.5978        
5.349934342    71285.7934        
5.347073692    71326.9334        
5.344216101    71368.1141        
5.341361562    71409.2792        
5.33851007     71450.4322        
5.335661622    71491.4671        
5.332816212    71532.5184        
5.329973835    71573.6166        
5.327134486    71614.6071        
5.324298161    71655.4751        
5.321464854    71696.6155        
5.318634561    71737.5253        
5.315807278    71778.523         
5.312982998    71819.5155        
5.310161719    71860.4011        
5.307343433    71901.2961        
5.304528138    71942.0878        
5.301715828    71983.007         
5.298906498    72023.7522        
5.296100144    72064.535         
5.293296761    72105.3775        
5.290496345    72145.9306        
5.28769889     72186.8427        
5.284904391    72227.6409        
5.282112845    72268.2793        
5.279324246    72309.0514        
5.276538591    72349.6794        
5.273755873    72390.2745        
5.270976089    72430.9319        
5.268199234    72471.5           
5.265425303    72512.0516        
5.262654291    72552.5897        
5.259886195    72593.162         
5.257121009    72633.7901        
5.254358729    72674.2183        
5.251599351    72714.6405        
5.248842869    72755.1858        
5.246089279    72795.408         
5.243338577    72835.8864        
5.240590758    72876.3902        
5.237845817    72916.7391        
5.23510375     72956.9482        
5.232364553    72997.2738        
5.229628221    73037.7139        
5.226894749    73077.8853        
5.224164134    73118.2731        
5.22143637     73158.5434        
5.218711453    73198.7257        
5.215989378    73238.9703        
5.213270142    73279.1553        
5.21055374     73319.2555        
5.207840167    73359.4525        
5.205129418    73399.4741        
5.202421491    73439.6484        
5.199716379    73479.4042        
5.197014079    73519.6361        
5.194314587    73559.7579        
5.191617897    73599.7218        
5.188924006    73639.7732        
5.186232909    73679.7711        
5.183544602    73719.6955        
5.180859081    73759.6806        
5.17817634     73799.4261        
5.175496377    73839.3874        
5.172819186    73879.0096        
5.170144764    73918.9981        
5.167473106    73958.6192        
5.164804207    73998.6179        
5.162138064    74038.284         
5.159474672    74077.9584        
5.156814027    74117.9697        
5.154156124    74157.5711        
5.15150096     74197.2496        
5.14884853     74237.042         
5.14619883     74276.5555        
5.143551856    74316.2581        
5.140907604    74355.8948        
5.138266069    74395.4728        
5.135627247    74434.7267        
5.132991134    74474.6227        
5.130357726    74514.166         
5.127727018    74553.645         
5.125099008    74593.1262        
5.122473689    74632.2033        
5.119851059    74671.7361        
5.117231113    74711.2045        
5.114613847    74750.7023        
5.111999256    74790.1552        
5.109387338    74829.4709        
5.106778087    74868.7481        
5.1041715      74907.8004        
5.101567573    74947.2917        
5.0989663      74986.6009        
5.09636768     75025.7067        
5.093771706    75064.9278        
5.091178376    75103.6845        
5.088587686    75143.0161        
5.08599963     75181.4389        
5.083414206    75221.7387        
5.080831409    75260.4307        
5.078251235    75299.5449        
5.07567368     75338.3833        
5.073098741    75377.9226        
5.070526413    75416.2023        
5.067956692    75455.9448        
5.065389575    75494.4798        
5.062825056    75533.7841        
5.060263134    75572.7864        
5.057703802    75611.5334        
5.055147059    75650.4967        
5.052592899    75689.14          
5.050041319    75724.5287        
5.047492314    75766.182         
5.044945881    75805.6096        
5.042402017    75844.1404        
5.039860717    75883.2375        
5.037321976    75921.7595        
5.034785793    75960.8652        
5.032252162    75999.0418        
5.029721079    76038.0474        
5.027192541    76076.3177        
5.024666545    76115.29          
5.022143085    76153.4918        
5.019622159    76192.4354        
5.017103763    76231.0535        
5.014587892    76269.4696        
5.012074543    76306.9406        
5.009563713    76345.9581        
5.007055396    76383.7465        
5.004549591    76422.9952        
5.002046292    76460.6084        
4.999545496    76499.9774        
4.997047199    76538.3632        
4.994551398    76576.8435        
4.992058089    76614.988         
4.989567268    76651.4857        
4.987078932    76691.7091        
4.984593076    76728.6642        
4.982109697    76767.9221        
4.979628791    76805.6364        
4.977150355    76844.4047        
4.974674385    76880.6087        
4.972200877    76919.7686        
4.969729827    76958.5519        
4.967261233    76995.5206        
4.964795089    77034.8861        
4.962331394    77072.4641        
4.959870142    77111.0291        
4.95741133     77148.6237        
4.954954955    77186.9595        
4.952501013    77224.4139        
4.9500495      77260.9052        
4.947600414    77298.5642        
4.945153749    77336.8508        
4.942709503    77376.455         
4.940267673    77413.3877        
4.937828253    77450.4271        
4.935391242    77488.387         
4.932956635    77526.3633        
4.930524429    77563.0347        
4.928094619    77602.6997        
4.925667204    77639.9403        
4.923242179    77677.8476        
4.92081954     77715.0656        
4.918399285    77752.5886        
4.915981409    77786.118         
4.913565909    77826.664         
4.911152781    77854.94          
4.908742023    77901.8111        
4.906333631    77938.8314        
4.9039276      77974.6734        
4.901523928    78013.7295        
4.899122612    78052.5092        
4.896723647    78086.9571        
4.89432703     78124.9991        
4.891932758    78158.2662        
4.889540828    78193.7741        
4.887151235    78225.3526        
4.884763977    78272.1716        
4.88237905     78310.1019        
4.879996451    78347.8451        
4.877616176    78384.553         
4.875238222    78418.2079        
4.872862585    78456.7718        
4.870489263    78494.8056        
4.868118251    78526.2349        
4.865749547    78565.6938        
4.863383146    78605.1727        
4.861019046    78641.6337        
4.858657244    78677.1286        
4.856297735    78712.1617        
4.853940517    78749.5656        
4.851585586    78786.7792        
4.84923294     78812.1644        
4.846882573    78833.9086        
4.844534484    78890.3129        
4.842188669    78933.0461        
4.839845125    78974.3466        
4.837503848    79000.8627        
4.835164835    79039.6267        
4.832828083    79080.2242        
4.830493589    79109.0095        
4.828161348    79152.8002        
4.825831359    79184.704         
4.823503618    79226.2918        
4.821178121    79258.2947        
4.818854865    79293.5348        
4.816533847    79319.814         
4.814215064    79359.5502        
4.811898513    79389.0084        
4.80958419     79434.8489        
4.807272092    79472.0417        
4.804962216    79515.5781        
4.802654558    79543.3664        
4.800349116    79580.1212        
4.798045887    79601.3011        
4.795744866    79627.1053        
4.793446052    79672.5648        
4.79114944     79715.7373        
4.788855028    79765.891         
4.786562813    79794.3144        
4.784272791    79804.2066        
4.781984958    79863.9391        
4.779699313    79910.096         
4.777415852    79946.4155        
4.775134572    79956.3622        
4.772855469    79995.5249        
4.770578541    80029.4754        
4.768303784    80042.0386        
4.766031196    80090.8246        
4.763760773    80133.5252        
4.761492511    80143.0231        
4.759226409    80212.0687        
4.756962463    80223.2503        
4.75470067     80285.3744        
4.752441027    80287.7112        
4.75018353     80367.421         
4.747928177    80399.19          
4.745674964    80395.1307        
4.74342389     80469.0672        
4.741174949    80490.5905        
4.738928141    80537.4855        
4.73668346     80565.3528        
4.734440906    80528.9352        
4.732200473    80601.1841        
4.72996216     80648.7471        
4.727725964    80697.5279        
4.725491881    80703.7163        
4.723259908    80623.5554        
4.721030043    80825.7986        
4.718802282    80820.4236        
4.716576623    80800.725         
4.714353062    80895.4089        
4.712131597    80934.1374        
4.709912224    80919.4157        
4.707694941    80920.0254        
4.705479745    80946.8912        
4.703266632    81081.5505        
4.701055601    81066.8671        
4.698846647    81075.2369        
4.696639768    81135.3046        
4.694434961    81177.3569        
4.692232223    81176.5719        
4.690031551    81231.1133        
4.687832943    81240.1226        
4.685636395    81311.0564        
4.683441904    81269.4768        
4.681249468    81406.379         
4.679059084    81383.2576        
4.676870748    81407.0692        
4.674684459    81431.9664        
4.672500212    81295.6064        
4.670318006    81459.6767        
4.668137837    81500.9662        
4.665959703    81617.3884        
4.6637836      81541.2913        
4.661609527    81664.5746        
4.659437479    81448.3215        
4.657267454    81656.1168        
4.65509945     81587.5377        
4.652933463    81680.5733        
4.650769491    81720.0848        
4.648607531    81775.2519        
4.64644758     81990.8384        
4.644289635    81941.7192        
4.642133693    81987.4608        
4.639979753    81801.7766        
4.63782781     81837.0194        
4.635677863    81912.0546        
4.633529907    81633.9247        
4.631383942    81728.5747        
4.629239963    82153.8814        
4.627097968    82188.0423        
4.624957955    82163.1015        
4.62281992     82286.3488        
4.620683861    82120.2011        
4.618549775    82273.1232        
4.61641766     81978.5679        
4.614287512    82091.368         
4.612159329    82038.153         
4.610033108    82251.4244        
4.607908847    82414.1267        
4.605786543    81918.9751        
4.603666192    82442.4968        
4.601547793    82648.0425        
4.599431343    82331.3891        
4.597316839    81904.2583        
4.595204278    82271.9727        
4.593093657    81821.5075        
4.590984975    82551.4878        
4.588878228    82520.1137        
4.586773413    82642.2674        
4.584670529    82580.319         
4.582569572    82602.539         
4.580470539    82877.4164        
4.578373429    83047.6457        
4.576278238    82798.2147        
4.574184963    82337.9154        
4.572093603    82886.8159        
4.570004155    82575.3131        
4.567916615    82240.7145        
4.565830981    82524.0495        
4.563747251    82236.9112        
4.561665423    80714.287         
4.559585492    82403.3192        
4.557507458    82423.7024        
4.555431317    82993.0598        
4.553357066    82112.5773        
4.551284704    82879.2993        
4.549214227    82567.7054        
4.547145633    82578.5214        
4.545078919    83340.4606        
4.543014083    83320.0993        
4.540951123    81966.2131        
4.538890035    82084.1135        
4.536830817    83098.4197        
4.534773467    82597.807         
4.532717983    83431.5981        
4.53066436     82320.117         
4.528612598    82206.1483        
4.526562693    82707.6773        
4.524514643    82367.734         
4.522468446    82680.2069        
4.520424098    83296.4954        
4.518381598    81426.2939        
4.516340943    81058.6741        
4.51430213     81614.7677        
4.512265157    81642.6711        
4.510230022    83686.3738        
4.508196721    83459.5234        
4.506165253    81901.967         
4.504135615    83604.2811        
4.502107805    82534.9607        
4.50008182     83381.942         
4.498057657    79649.7127        
4.496035314    83762.7045        
4.494014789    82996.1557        
4.49199608     82845.1377        
4.489979183    82605.2226        
4.487964096    81325.2389        
4.485950818    80878.0824        
4.483939345    81795.0439        
4.481929674    84074.2822        
4.479921805    84187.6465        
4.477915734    83936.1827        
4.475911458    77245.7217        
4.473908976    84346.5774        
4.471908285    84116.2131        
4.469909383    84008.0437        
4.467912266    81533.6353        
4.465916934    84539.1253        
4.463923383    82778.3248        
4.461931611    82497.8354        
4.459941615    84581.0248        
4.457953394    84457.9912        
4.455966945    84615.5334        
4.453982265    79801.4436        
4.451999352    84381.178         
4.450018205    74889.7716        
4.448038819    78035.4647        
4.446061194    82688.1651        
4.444085326    84632.5586        
4.442111214    84090.9315        
4.440138855    83925.9495        
4.438168247    83973.8655        
4.436199387    83017.15          
4.434232273    84752.5847        
4.432266903    84331.5074        
4.430303274    84556.9092        
4.428341385    84817.2827        
4.426381232    85158.7299        
4.424422814    83693.6768        
4.422466128    84509.403         
4.420511172    83986.7538        
4.418557943    79346.8083        
4.41660644     72535.8441        
4.41465666     84864.5894        
4.412708601    85182.6611        
4.41076226     81485.9103        
4.408817635    83706.2031        
4.406874725    78680.6903        
4.404933526    83788.8501        
4.402994036    85053.4701        
4.401056254    84334.4036        
4.399120176    81439.1758        
4.397185801    85317.551         
4.395253127    83013.4664        
4.39332215     84937.0496        
4.39139287     84633.7559        
4.389465283    84627.9043        
4.387539388    85706.5526        
4.385615182    84232.9885        
4.383692663    84485.8785        
4.381771829    85464.5472        
4.379852678    85672.3598        
4.377935207    86224.6888        
4.376019414    85616.547         
4.374105297    85024.2267        
4.372192853    85511.3494        
4.370282082    85935.8588        
4.36837298     85309.6074        
4.366465545    73339.7213        
4.364559775    76825.951         
4.362655667    85584.7594        
4.360753221    82385.0905        
4.358852433    84626.2185        
4.356953301    81763.3079        
4.355055824    86276.0336        
4.353159998    83377.0593        
4.351265823    85980.6356        
4.349373295    83357.7115        
4.347482412    84769.1484        
4.345593173    85129.6436        
4.343705576    84033.1499        
4.341819617    86767.9465        
4.339935296    86653.5517        
4.338052609    86105.057         
4.336171555    86074.2064        
4.334292131    86009.1387        
4.332414336    78248.4798        
4.330538168    87033.1297        
4.328663623    77110.9909        
4.326790701    84335.69          
4.324919399    84983.0342        
4.323049715    86369.2815        
4.321181647    86893.5101        
4.319315192    70378.8183        
4.317450349    80585.5746        
4.315587116    84241.1277        
4.31372549     81425.9244        
4.31186547     63362.171         
4.310007053    78786.6868        
4.308150237    85915.034         
4.30629502     87481.8784        
4.304441401    84716.0274        
4.302589377    86448.7684        
4.300738945    86381.6186        
4.298890105    84823.8665        
4.297042853    85901.9192        
4.295197189    87416.3332        
4.293353109    80565.8586        
4.291510612    84154.1107        
4.289669695    81418.8106        
4.287830358    86715.5176        
4.285992597    87713.0577        
4.284156411    76680.406         
4.282321797    83649.3577        
4.280488754    85216.8199        
4.27865728     87686.354         
4.276827372    85650.7138        
4.274999028    73811.3787        
4.273172248    84321.2242        
4.271347028    86536.7821        
4.269523366    86848.8499        
4.267701261    82111.1848        
4.26588071     81290.6497        
4.264061713    88260.9541        
4.262244265    88218.5316        
4.260428367    81944.5746        
4.258614015    86873.7648        
4.256801207    87937.7774        
4.254989943    88111.159         
4.253180219    78275.0885        
4.251372034    88390.0114        
4.249565385    68284.7035        
4.247760272    85686.2163        
4.245956691    88134.2757        
4.244154642    72470.8609        
4.242354121    88496.34          
4.240555127    87169.617         
4.238757659    88645.8518        
4.236961713    88141.0334        
4.235167289    88616.9296        
4.233374384    88733.0569        
4.231582997    88832.235         
4.229793125    88739.6863        
4.228004766    88806.7558        
4.226217919    88920.4048        
4.224432582    88914.4474        
4.222648752    88971.365         
4.220866429    88957.7011        
4.219085609    88803.2231        
4.217306291    88903.4823        
4.215528474    89006.5477        
4.213752155    87478.8527        
4.211977332    87607.91          
4.210204004    89186.3594        
4.208432168    89128.4666        
4.206661823    89252.3986        
4.204892966    89264.4198        
4.203125597    89273.3129        
4.201359713    89290.7214        
4.199595312    86572.6217        
4.197832392    89328.0477        
4.196070952    83331.479         
4.194310989    72967.2473        
4.192552502    86884.8951        
4.190795489    89521.7567        
4.189039948    89517.5414        
4.187285877    89577.9304        
4.185533275    89596.4795        
4.183782139    89636.4887        
4.182032468    89648.3071        
4.180284259    80108.6007        
4.178537512    89632.6386        
4.176792224    89750.3713        
4.175048393    89752.5622        
4.173306017    89803.0003        
4.171565095    84967.3617        
4.169825625    89870.0777        
4.168087606    89898.807         
4.166351034    89926.8557        
4.164615909    89955.8636        
4.162882228    89984.2341        
4.161149991    90012.5876        
4.159419194    90041.144         
