#wvl [um]      Flux [erg/s/cm]
5.5            69159.4175        
5.496976663    69201.9111        
5.493956648    69243.8937        
5.490939949    69286.2818        
5.487926562    69327.8635        
5.48491648     69370.5534        
5.481909698    69412.5833        
5.478906211    69453.8406        
5.475906014    69496.1586        
5.4729091      69537.8534        
5.469915465    69580.6052        
5.466925103    69622.6065        
5.463938009    69664.5728        
5.460954178    69705.6699        
5.457973603    69748.1903        
5.454996281    69790.2869        
5.452022205    69831.5924        
5.44905137     69873.7979        
5.446083771    69915.9785        
5.443119402    69957.5304        
5.440158259    69999.6363        
5.437200336    70041.2338        
5.434245628    70078.8087        
5.431294129    70124.9365        
5.428345835    70160.4272        
5.42540074     70208.2439        
5.422458839    70240.4223        
5.419520126    70291.6557        
5.416584597    70333.3747        
5.413652247    70374.971         
5.410723069    70416.5755        
5.40779706     70458.1992        
5.404874214    70499.175         
5.401954525    70541.2861        
5.39903799     70580.9938        
5.396124601    70624.2979        
5.393214356    70664.1748        
5.390307248    70707.0202        
5.387403272    70748.7675        
5.384502423    70789.7142        
5.381604697    70831.5227        
5.378710088    70872.9917        
5.375818591    70914.3985        
5.372930201    70955.7379        
5.370044913    70996.8631        
5.367162723    71036.1057        
5.364283624    71076.4018        
5.361407613    71118.9783        
5.358534684    71161.8468        
5.355664833    71203.0701        
5.352798054    71242.9652        
5.349934342    71285.4815        
5.347073692    71326.7203        
5.344216101    71367.2479        
5.341361562    71407.9567        
5.33851007     71450.4057        
5.335661622    71491.5558        
5.332816212    71532.5059        
5.329973835    71573.5001        
5.327134486    71614.7147        
5.324298161    71651.4052        
5.321464854    71696.7318        
5.318634561    71737.6727        
5.315807278    71778.5314        
5.312982998    71819.3172        
5.310161719    71860.4464        
5.307343433    71900.555         
5.304528138    71942.207         
5.301715828    71979.2139        
5.298906498    72023.7309        
5.296100144    72063.8946        
5.293296761    72082.7891        
5.290496345    72134.486         
5.28769889     72185.6625        
5.284904391    72226.9613        
5.282112845    72268.4015        
5.279324246    72292.0337        
5.276538591    72349.6554        
5.273755873    72390.4087        
5.270976089    72430.9284        
5.268199234    72451.3258        
5.265425303    72512.0572        
5.262654291    72552.7536        
5.259886195    72592.3106        
5.257121009    72632.8359        
5.254358729    72666.3195        
5.251599351    72713.8366        
5.248842869    72755.2409        
5.246089279    72795.6477        
5.243338577    72836.0481        
5.240590758    72875.4364        
5.237845817    72915.2325        
5.23510375     72932.2018        
5.232364553    72996.7628        
5.229628221    73037.2364        
5.226894749    73077.3791        
5.224164134    73118.3724        
5.22143637     73158.604         
5.218711453    73192.7082        
5.215989378    73239.0757        
5.213270142    73279.0793        
5.21055374     73311.943         
5.207840167    73339.4489        
5.205129418    73399.5758        
5.202421491    73434.0299        
5.199716379    73478.451         
5.197014079    73519.8519        
5.194314587    73559.8929        
5.191617897    73599.8163        
5.188924006    73629.7785        
5.186232909    73679.6154        
5.183544602    73689.1954        
5.180859081    73759.6222        
5.17817634     73799.0062        
5.175496377    73839.326         
5.172819186    73870.6529        
5.170144764    73918.4649        
5.167473106    73958.9992        
5.164804207    73998.843         
5.162138064    74037.8566        
5.159474672    74067.8182        
5.156814027    74115.0189        
5.154156124    74157.5982        
5.15150096     74197.4989        
5.14884853     74224.928         
5.14619883     74276.5767        
5.143551856    74314.1419        
5.140907604    74349.951         
5.138266069    74394.3504        
5.135627247    74434.3803        
5.132991134    74474.6662        
5.130357726    74514.2143        
5.127727018    74553.6618        
5.125099008    74565.0216        
5.122473689    74631.8132        
5.119851059    74668.2159        
5.117231113    74711.5291        
5.114613847    74745.9392        
5.111999256    74790.3068        
5.109387338    74829.4821        
5.106778087    74868.9612        
5.1041715      74906.8164        
5.101567573    74947.5393        
5.0989663      74985.473         
5.09636768     75026.0166        
5.093771706    75065.1584        
5.091178376    75104.2582        
5.088587686    75131.2778        
5.08599963     75182.3944        
5.083414206    75221.8645        
5.080831409    75260.8955        
5.078251235    75299.2201        
5.07567368     75339.0172        
5.073098741    75378.0429        
5.070526413    75390.7872        
5.067956692    75455.0716        
5.065389575    75495.0777        
5.062825056    75534.0841        
5.060263134    75572.757         
5.057703802    75611.7161        
5.055147059    75650.7854        
5.052592899    75688.3158        
5.050041319    75728.4105        
5.047492314    75761.4079        
5.044945881    75752.023         
5.042402017    75844.8437        
5.039860717    75883.6043        
5.037321976    75922.2825        
5.034785793    75952.6251        
5.032252162    75998.9436        
5.029721079    76035.6144        
5.027192541    76076.8483        
5.024666545    76108.7046        
5.022143085    76154.1719        
5.019622159    76141.1048        
5.017103763    76226.5021        
5.014587892    76269.751         
5.012074543    76308.3903        
5.009563713    76346.8336        
5.007055396    76383.4052        
5.004549591    76422.1243        
5.002046292    76462.0233        
4.999545496    76497.7117        
4.997047199    76538.1688        
4.994551398    76572.4611        
4.992058089    76579.6719        
4.989567268    76653.887         
4.987078932    76692.1701        
4.984593076    76730.4501        
4.982109697    76768.5537        
4.979628791    76741.6118        
4.977150355    76845.0633        
4.974674385    76882.826         
4.972200877    76920.9908        
4.969729827    76957.2316        
4.967261233    76995.4117        
4.964795089    77035.5218        
4.962331394    77073.7006        
4.959870142    77111.7678        
4.95741133     77149.4288        
4.954954955    77187.5883        
4.952501013    77225.7105        
4.9500495      77263.658         
4.947600414    77301.384         
4.945153749    77339.4052        
4.942709503    77377.226         
4.940267673    77413.9612        
4.937828253    77452.8783        
4.935391242    77490.737         
4.932956635    77477.2601        
4.930524429    77566.2719        
4.928094619    77604.038         
4.925667204    77641.7548        
4.923242179    77679.4343        
4.92081954     77716.3443        
4.918399285    77752.2419        
4.915981409    77792.1659        
4.913565909    77830.0356        
4.911152781    77867.6014        
4.908742023    77905.1657        
4.906333631    77942.6943        
4.9039276      77980.1989        
4.901523928    78017.6755        
4.899122612    78055.1362        
4.896723647    78092.5611        
4.89432703     78129.9833        
4.891932758    78167.3704        
4.889540828    78204.734         
4.887151235    78242.0631        
4.884763977    78279.3948        
4.88237905     78316.6902        
4.879996451    78353.962         
4.877616176    78391.2084        
4.875238222    78428.4352        
4.872862585    78465.6382        
4.870489263    78502.8171        
4.868118251    78539.9694        
4.865749547    78577.095         
4.863383146    78614.2161        
4.861019046    78651.3028        
4.858657244    78688.3675        
4.856297735    78725.4073        
4.853940517    78762.4273        
4.851585586    78799.4226        
4.84923294     78836.3947        
4.846882573    78873.3429        
4.844534484    78910.2698        
4.842188669    78947.1709        
4.839845125    78984.0533        
4.837503848    79020.9089        
4.835164835    79057.74          
4.832828083    79094.553         
4.830493589    79131.3397        
4.828161348    79168.1026        
4.825831359    79204.8376        
4.823503618    79241.5585        
4.821178121    79278.2502        
4.818854865    79314.916         
4.816533847    79351.5623        
4.814215064    79388.1853        
4.811898513    79424.7697        
4.80958419     79461.3452        
4.807272092    79497.906         
4.804962216    79534.4315        
4.802654558    79570.9027        
4.800349116    79607.4029        
4.798045887    79643.8546        
4.795744866    79680.294         
4.793446052    79716.6993        
4.79114944     79753.0819        
4.788855028    79789.4401        
4.786562813    79825.7386        
4.784272791    79862.0851        
4.781984958    79898.3716        
4.779699313    79934.6343        
4.777415852    79970.8749        
4.775134572    80007.0891        
4.772855469    80043.2791        
4.770578541    80079.4441        
4.768303784    80115.5955        
4.766031196    80151.7169        
4.763760773    80187.8142        
4.761492511    80223.8878        
4.759226409    80259.9419        
4.756962463    80295.9677        
4.75470067     80331.9733        
4.752441027    80367.9542        
4.75018353     80403.9106        
4.747928177    80439.8445        
4.745674964    80475.7544        
4.74342389     80511.6402        
4.741174949    80547.5018        
4.738928141    80583.3409        
4.73668346     80619.1565        
4.734440906    80654.9173        
4.732200473    80690.7066        
4.72996216     80726.4579        
4.727725964    80762.1755        
4.725491881    80797.8666        
4.723259908    80833.5452        
4.721030043    80869.1887        
4.718802282    80904.8074        
4.716576623    80940.4046        
4.714353062    80975.9936        
4.712131597    81011.5445        
4.709912224    81047.0639        
4.707694941    81082.5629        
4.705479745    81118.0435        
4.703266632    81153.5072        
4.701055601    81188.9119        
4.698846647    81224.3253        
4.696639768    81259.7305        
4.694434961    81295.0874        
4.692232223    81330.4254        
4.690031551    81365.7371        
4.687832943    81400.9861        
4.685636395    81436.2302        
4.683441904    81471.5211        
4.681249468    81506.7262        
4.679059084    81541.9128        
4.676870748    81577.0862        
4.674684459    81612.1619        
4.672500212    81647.298         
4.670318006    81682.434         
4.668137837    81717.4925        
4.665959703    81752.5425        
4.6637836      81787.5576        
4.661609527    81822.5532        
4.659437479    81857.5205        
4.657267454    81892.4678        
4.65509945     81927.3857        
4.652933463    81962.2812        
4.650769491    81997.1542        
4.648607531    82031.8756        
4.64644758     82066.8003        
4.644289635    82101.6115        
4.642133693    82136.3943        
4.639979753    82171.1301        
4.63782781     82205.8658        
4.635677863    82240.5669        
4.633529907    82275.2227        
4.631383942    82309.8931        
4.629239963    82344.5269        
4.627097968    82379.1292        
4.624957955    82413.7091        
4.62281992     82448.2612        
4.620683861    82482.5199        
4.618549775    82517.3017        
4.61641766     82551.7658        
4.614287512    82586.2254        
4.612159329    82620.6698        
4.610033108    82655.0579        
4.607908847    82689.4327        
4.605786543    82723.7967        
4.603666192    82757.5546        
4.601547793    82791.8461        
4.599431343    82826.7467        
4.597316839    82860.9796        
4.595204278    82895.2539        
4.593093657    82929.3529        
4.590984975    82963.6373        
4.588878228    82997.7147        
4.586773413    83031.3392        
4.584670529    83066.0568        
4.582569572    83100.1506        
4.580470539    83134.2172        
4.578373429    83168.2461        
4.576278238    83202.2183        
4.574184963    83236.2633        
4.572093603    83270.1851        
4.570004155    83304.1646        
4.567916615    83338.077         
4.565830981    83371.9743        
4.563747251    83405.8213        
4.561665423    83439.6202        
4.559585492    83473.4933        
4.557507458    83507.2797        
4.555431317    83540.1778        
4.553357066    83574.5737        
4.551284704    83608.5073        
4.549214227    83641.1641        
4.547145633    83675.8722        
4.545078919    83709.4858        
4.543014083    83742.8555        
4.540951123    83776.7178        
4.538890035    83810.3004        
4.536830817    83843.7964        
4.534773467    83877.3668        
4.532717983    83910.6971        
4.53066436     83944.2629        
4.528612598    83977.7285        
4.526562693    84011.1861        
4.524514643    84044.4299        
4.522468446    84077.3252        
4.520424098    84111.2699        
4.518381598    84144.6105        
4.516340943    84177.8935        
4.51430213     84211.1647        
4.512265157    84244.4329        
4.510230022    84277.566         
4.508196721    84310.775         
4.506165253    84343.9564        
4.504135615    84377.1593        
4.502107805    84410.246         
4.50008182     84443.3662        
4.498057657    84476.4492        
4.496035314    84509.4724        
4.494014789    84542.2717        
4.49199608     84575.4754        
4.489979183    84608.4285        
4.487964096    84641.4259        
4.485950818    84674.3121        
4.483939345    84707.181         
4.481929674    84739.9981        
4.479921805    84772.9263        
4.477915734    84805.5037        
4.475911458    84838.5645        
4.473908976    84871.0657        
4.471908285    84903.9728        
4.469909383    84936.4024        
4.467912266    84969.4371        
4.465916934    85002.1289        
4.463923383    85034.7556        
4.461931611    85067.4123        
4.459941615    85099.7241        
4.457953394    85132.5248        
4.455966945    85165.1076        
4.453982265    85196.7832        
4.451999352    85230.0941        
4.450018205    85262.5508        
4.448038819    85294.9869        
4.446061194    85327.4224        
4.444085326    85359.6884        
4.442111214    85392.1806        
4.440138855    85424.5316        
4.438168247    85456.8339        
4.436199387    85489.1311        
4.434232273    85521.382         
4.432266903    85553.6273        
4.430303274    85585.7586        
4.428341385    85618.0237        
4.426381232    85650.1494        
4.424422814    85682.2652        
4.422466128    85714.4338        
4.420511172    85746.4918        
4.418557943    85778.4302        
4.41660644     85810.5918        
4.41465666     85842.6358        
4.412708601    85874.1192        
4.41076226     85906.5723        
4.408817635    85938.4558        
4.406874725    85970.4177        
4.404933526    86002.2992        
4.402994036    86034.1099        
4.401056254    86065.9803        
4.399120176    86097.7619        
4.397185801    86129.543         
4.395253127    86160.8186        
4.39332215     86192.9891        
4.39139287     86224.7016        
4.389465283    86256.1126        
4.387539388    86287.9928        
4.385615182    86319.6982        
4.383692663    86351.1458        
4.381771829    86382.8547        
4.379852678    86414.4337        
4.377935207    86445.9481        
4.376019414    86477.4466        
4.374105297    86508.9295        
4.372192853    86539.8468        
4.370282082    86571.7749        
4.36837298     86603.1807        
4.366465545    86634.5329        
4.364559775    86665.8425        
4.362655667    86697.0582        
4.360753221    86728.4845        
4.358852433    86759.7684        
4.356953301    86790.8672        
4.355055824    86822.2161        
4.353159998    86853.4061        
4.351265823    86883.7438        
4.349373295    86915.7276        
4.347482412    86946.6478        
4.345593173    86977.7144        
4.343705576    87008.9816        
4.341819617    87038.9338        
4.339935296    87070.9439        
4.338052609    87101.9265        
4.336171555    87132.9827        
4.334292131    87163.8709        
4.332414336    87194.7406        
4.330538168    87225.6955        
4.328663623    87256.3776        
4.326790701    87287.3965        
4.324919399    87318.2095        
4.323049715    87348.9461        
4.321181647    87379.7456        
4.319315192    87410.3968        
4.317450349    87441.1445        
4.315587116    87471.7723        
4.31372549     87502.4774        
4.31186547     87533.0959        
4.310007053    87563.7247        
4.308150237    87593.643         
4.30629502     87624.7659        
4.304441401    87655.3657        
4.302589377    87685.8061        
4.300738945    87716.3223        
4.298890105    87746.5795        
4.297042853    87776.9865        
4.295197189    87807.5738        
4.293353109    87837.9445        
4.291510612    87868.2804        
4.289669695    87898.5688        
4.287830358    87928.4502        
4.285992597    87959.11          
4.284156411    87989.3639        
4.282321797    88019.5888        
4.280488754    88049.2996        
4.27865728     88079.5185        
4.276827372    88110.0036        
4.274999028    88140.0793        
4.273172248    88170.2494        
4.271347028    88200.2738        
4.269523366    88230.0722        
4.267701261    88260.2853        
4.26588071     88290.3314        
4.264061713    88320.2748        
4.262244265    88350.2182        
4.260428367    88379.6556        
4.258614015    88409.7954        
4.256801207    88439.619         
4.254989943    88469.6414        
4.253180219    88499.4406        
4.251372034    88529.0305        
4.249565385    88558.9768        
4.247760272    88588.6788        
4.245956691    88618.3738        
4.244154642    88647.8417        
4.242354121    88677.4158        
4.240555127    88707.1445        
4.238757659    88736.8139        
4.236961713    88766.3573        
4.235167289    88795.7631        
4.233374384    88825.2713        
4.231582997    88854.9365        
4.229793125    88884.3062        
4.228004766    88913.721         
4.226217919    88943.197         
4.224432582    88972.6652        
4.222648752    89001.8937        
4.220866429    89031.3386        
4.219085609    89060.6389        
4.217306291    89089.9123        
4.215528474    89119.1387        
4.213752155    89148.2708        
4.211977332    89177.5734        
4.210204004    89206.5938        
4.208432168    89235.8881        
4.206661823    89264.8656        
4.204892966    89294.009         
4.203125597    89322.8967        
4.201359713    89352.0982        
4.199595312    89381.1667        
4.197832392    89410.1831        
4.196070952    89439.1346        
4.194310989    89468.0551        
4.192552502    89496.9593        
4.190795489    89525.8389        
4.189039948    89554.7058        
4.187285877    89583.5011        
4.185533275    89612.3431        
4.183782139    89641.0569        
4.182032468    89669.6646        
4.180284259    89698.6061        
4.178537512    89727.299         
4.176792224    89755.9106        
4.175048393    89784.6069        
4.173306017    89813.1949        
4.171565095    89841.8089        
4.169825625    89870.3865        
4.168087606    89898.869         
4.166351034    89927.4321        
4.164615909    89955.9079        
4.162882228    89984.3787        
4.161149991    90012.8322        
4.159419194    90041.2445        
