# ExoMol H2S partition-function data
  temp(K)         112
      1.0  1.00000e+00
      2.0  1.00050e+00
      3.0  1.01530e+00
      4.0  1.08580e+00
      5.0  1.24580e+00
      6.0  1.50220e+00
      7.0  1.84430e+00
      8.0  2.25650e+00
      9.0  2.72370e+00
     10.0  3.23400e+00
     11.0  3.77840e+00
     12.0  4.35040e+00
     13.0  4.94560e+00
     14.0  5.56060e+00
     15.0  6.19320e+00
     16.0  6.84170e+00
     17.0  7.50520e+00
     18.0  8.18270e+00
     19.0  8.87360e+00
     20.0  9.57760e+00
     21.0  1.02944e+01
     22.0  1.10237e+01
     23.0  1.17653e+01
     24.0  1.25193e+01
     25.0  1.32854e+01
     26.0  1.40636e+01
     27.0  1.48538e+01
     28.0  1.56561e+01
     29.0  1.64703e+01
     30.0  1.72964e+01
     31.0  1.81344e+01
     32.0  1.89841e+01
     33.0  1.98456e+01
     34.0  2.07187e+01
     35.0  2.16034e+01
     36.0  2.24996e+01
     37.0  2.34073e+01
     38.0  2.43263e+01
     39.0  2.52566e+01
     40.0  2.61981e+01
     41.0  2.71506e+01
     42.0  2.81142e+01
     43.0  2.90887e+01
     44.0  3.00740e+01
     45.0  3.10700e+01
     46.0  3.20767e+01
     47.0  3.30940e+01
     48.0  3.41217e+01
     49.0  3.51598e+01
     50.0  3.62082e+01
     51.0  3.72667e+01
     52.0  3.83354e+01
     53.0  3.94141e+01
     54.0  4.05027e+01
     55.0  4.16012e+01
     56.0  4.27095e+01
     57.0  4.38275e+01
     58.0  4.49551e+01
     59.0  4.60922e+01
     60.0  4.72388e+01
     61.0  4.83948e+01
     62.0  4.95601e+01
     63.0  5.07346e+01
     64.0  5.19184e+01
     65.0  5.31112e+01
     66.0  5.43131e+01
     67.0  5.55240e+01
     68.0  5.67437e+01
     69.0  5.79724e+01
     70.0  5.92098e+01
     71.0  6.04559e+01
     72.0  6.17107e+01
     73.0  6.29741e+01
     74.0  6.42461e+01
     75.0  6.55266e+01
     76.0  6.68155e+01
     77.0  6.81128e+01
     78.0  6.94184e+01
     79.0  7.07323e+01
     80.0  7.20545e+01
     81.0  7.33848e+01
     82.0  7.47233e+01
     83.0  7.60699e+01
     84.0  7.74244e+01
     85.0  7.87870e+01
     86.0  8.01576e+01
     87.0  8.15360e+01
     88.0  8.29223e+01
     89.0  8.43164e+01
     90.0  8.57183e+01
     91.0  8.71279e+01
     92.0  8.85452e+01
     93.0  8.99702e+01
     94.0  9.14027e+01
     95.0  9.28428e+01
     96.0  9.42905e+01
     97.0  9.57456e+01
     98.0  9.72082e+01
     99.0  9.86783e+01
    100.0  1.00156e+02
    101.0  1.01640e+02
    102.0  1.03132e+02
    103.0  1.04632e+02
    104.0  1.06138e+02
    105.0  1.07652e+02
    106.0  1.09173e+02
    107.0  1.10701e+02
    108.0  1.12236e+02
    109.0  1.13779e+02
    110.0  1.15328e+02
    111.0  1.16884e+02
    112.0  1.18448e+02
    113.0  1.20018e+02
    114.0  1.21595e+02
    115.0  1.23179e+02
    116.0  1.24770e+02
    117.0  1.26368e+02
    118.0  1.27973e+02
    119.0  1.29584e+02
    120.0  1.31202e+02
    121.0  1.32827e+02
    122.0  1.34459e+02
    123.0  1.36097e+02
    124.0  1.37742e+02
    125.0  1.39393e+02
    126.0  1.41052e+02
    127.0  1.42716e+02
    128.0  1.44387e+02
    129.0  1.46065e+02
    130.0  1.47750e+02
    131.0  1.49440e+02
    132.0  1.51137e+02
    133.0  1.52841e+02
    134.0  1.54551e+02
    135.0  1.56268e+02
    136.0  1.57990e+02
    137.0  1.59719e+02
    138.0  1.61455e+02
    139.0  1.63196e+02
    140.0  1.64945e+02
    141.0  1.66699e+02
    142.0  1.68459e+02
    143.0  1.70226e+02
    144.0  1.71999e+02
    145.0  1.73778e+02
    146.0  1.75563e+02
    147.0  1.77354e+02
    148.0  1.79151e+02
    149.0  1.80955e+02
    150.0  1.82765e+02
    151.0  1.84580e+02
    152.0  1.86402e+02
    153.0  1.88230e+02
    154.0  1.90063e+02
    155.0  1.91903e+02
    156.0  1.93749e+02
    157.0  1.95600e+02
    158.0  1.97458e+02
    159.0  1.99321e+02
    160.0  2.01190e+02
    161.0  2.03065e+02
    162.0  2.04946e+02
    163.0  2.06833e+02
    164.0  2.08726e+02
    165.0  2.10625e+02
    166.0  2.12529e+02
    167.0  2.14439e+02
    168.0  2.16355e+02
    169.0  2.18276e+02
    170.0  2.20204e+02
    171.0  2.22137e+02
    172.0  2.24076e+02
    173.0  2.26020e+02
    174.0  2.27970e+02
    175.0  2.29926e+02
    176.0  2.31888e+02
    177.0  2.33855e+02
    178.0  2.35827e+02
    179.0  2.37806e+02
    180.0  2.39790e+02
    181.0  2.41780e+02
    182.0  2.43775e+02
    183.0  2.45775e+02
    184.0  2.47782e+02
    185.0  2.49793e+02
    186.0  2.51811e+02
    187.0  2.53834e+02
    188.0  2.55862e+02
    189.0  2.57896e+02
    190.0  2.59935e+02
    191.0  2.61980e+02
    192.0  2.64030e+02
    193.0  2.66086e+02
    194.0  2.68147e+02
    195.0  2.70214e+02
    196.0  2.72286e+02
    197.0  2.74363e+02
    198.0  2.76446e+02
    199.0  2.78534e+02
    200.0  2.80628e+02
    201.0  2.82727e+02
    202.0  2.84831e+02
    203.0  2.86941e+02
    204.0  2.89056e+02
    205.0  2.91176e+02
    206.0  2.93302e+02
    207.0  2.95433e+02
    208.0  2.97569e+02
    209.0  2.99711e+02
    210.0  3.01858e+02
    211.0  3.04010e+02
    212.0  3.06168e+02
    213.0  3.08330e+02
    214.0  3.10499e+02
    215.0  3.12672e+02
    216.0  3.14851e+02
    217.0  3.17034e+02
    218.0  3.19223e+02
    219.0  3.21418e+02
    220.0  3.23617e+02
    221.0  3.25822e+02
    222.0  3.28032e+02
    223.0  3.30247e+02
    224.0  3.32468e+02
    225.0  3.34693e+02
    226.0  3.36924e+02
    227.0  3.39160e+02
    228.0  3.41401e+02
    229.0  3.43647e+02
    230.0  3.45899e+02
    231.0  3.48156e+02
    232.0  3.50418e+02
    233.0  3.52685e+02
    234.0  3.54957e+02
    235.0  3.57234e+02
    236.0  3.59517e+02
    237.0  3.61804e+02
    238.0  3.64097e+02
    239.0  3.66395e+02
    240.0  3.68698e+02
    241.0  3.71006e+02
    242.0  3.73319e+02
    243.0  3.75637e+02
    244.0  3.77961e+02
    245.0  3.80290e+02
    246.0  3.82623e+02
    247.0  3.84962e+02
    248.0  3.87306e+02
    249.0  3.89655e+02
    250.0  3.92009e+02
    251.0  3.94369e+02
    252.0  3.96733e+02
    253.0  3.99102e+02
    254.0  4.01477e+02
    255.0  4.03856e+02
    256.0  4.06241e+02
    257.0  4.08631e+02
    258.0  4.11026e+02
    259.0  4.13426e+02
    260.0  4.15831e+02
    261.0  4.18241e+02
    262.0  4.20656e+02
    263.0  4.23076e+02
    264.0  4.25502e+02
    265.0  4.27932e+02
    266.0  4.30368e+02
    267.0  4.32808e+02
    268.0  4.35254e+02
    269.0  4.37705e+02
    270.0  4.40160e+02
    271.0  4.42621e+02
    272.0  4.45087e+02
    273.0  4.47558e+02
    274.0  4.50034e+02
    275.0  4.52515e+02
    276.0  4.55002e+02
    277.0  4.57493e+02
    278.0  4.59989e+02
    279.0  4.62491e+02
    280.0  4.64997e+02
    281.0  4.67509e+02
    282.0  4.70026e+02
    283.0  4.72547e+02
    284.0  4.75074e+02
    285.0  4.77606e+02
    286.0  4.80143e+02
    287.0  4.82685e+02
    288.0  4.85232e+02
    289.0  4.87784e+02
    290.0  4.90342e+02
    291.0  4.92904e+02
    292.0  4.95471e+02
    293.0  4.98044e+02
    294.0  5.00622e+02
    295.0  5.03204e+02
    296.0  5.05792e+02
    297.0  5.08385e+02
    298.0  5.10983e+02
    299.0  5.13586e+02
    300.0  5.16194e+02
    301.0  5.18808e+02
    302.0  5.21426e+02
    303.0  5.24049e+02
    304.0  5.26678e+02
    305.0  5.29312e+02
    306.0  5.31951e+02
    307.0  5.34595e+02
    308.0  5.37244e+02
    309.0  5.39898e+02
    310.0  5.42557e+02
    311.0  5.45221e+02
    312.0  5.47891e+02
    313.0  5.50566e+02
    314.0  5.53245e+02
    315.0  5.55930e+02
    316.0  5.58620e+02
    317.0  5.61316e+02
    318.0  5.64016e+02
    319.0  5.66721e+02
    320.0  5.69432e+02
    321.0  5.72148e+02
    322.0  5.74869e+02
    323.0  5.77595e+02
    324.0  5.80326e+02
    325.0  5.83063e+02
    326.0  5.85804e+02
    327.0  5.88551e+02
    328.0  5.91303e+02
    329.0  5.94060e+02
    330.0  5.96823e+02
    331.0  5.99590e+02
    332.0  6.02363e+02
    333.0  6.05141e+02
    334.0  6.07924e+02
    335.0  6.10712e+02
    336.0  6.13506e+02
    337.0  6.16304e+02
    338.0  6.19108e+02
    339.0  6.21918e+02
    340.0  6.24732e+02
    341.0  6.27552e+02
    342.0  6.30376e+02
    343.0  6.33207e+02
    344.0  6.36042e+02
    345.0  6.38883e+02
    346.0  6.41728e+02
    347.0  6.44580e+02
    348.0  6.47436e+02
    349.0  6.50298e+02
    350.0  6.53164e+02
    351.0  6.56037e+02
    352.0  6.58914e+02
    353.0  6.61797e+02
    354.0  6.64685e+02
    355.0  6.67578e+02
    356.0  6.70477e+02
    357.0  6.73381e+02
    358.0  6.76290e+02
    359.0  6.79204e+02
    360.0  6.82124e+02
    361.0  6.85049e+02
    362.0  6.87980e+02
    363.0  6.90916e+02
    364.0  6.93857e+02
    365.0  6.96803e+02
    366.0  6.99755e+02
    367.0  7.02712e+02
    368.0  7.05675e+02
    369.0  7.08643e+02
    370.0  7.11616e+02
    371.0  7.14595e+02
    372.0  7.17579e+02
    373.0  7.20569e+02
    374.0  7.23563e+02
    375.0  7.26564e+02
    376.0  7.29569e+02
    377.0  7.32581e+02
    378.0  7.35597e+02
    379.0  7.38619e+02
    380.0  7.41646e+02
    381.0  7.44679e+02
    382.0  7.47717e+02
    383.0  7.50761e+02
    384.0  7.53810e+02
    385.0  7.56865e+02
    386.0  7.59924e+02
    387.0  7.62990e+02
    388.0  7.66061e+02
    389.0  7.69137e+02
    390.0  7.72219e+02
    391.0  7.75307e+02
    392.0  7.78400e+02
    393.0  7.81498e+02
    394.0  7.84602e+02
    395.0  7.87712e+02
    396.0  7.90826e+02
    397.0  7.93947e+02
    398.0  7.97073e+02
    399.0  8.00205e+02
    400.0  8.03342e+02
    401.0  8.06484e+02
    402.0  8.09633e+02
    403.0  8.12786e+02
    404.0  8.15946e+02
    405.0  8.19111e+02
    406.0  8.22281e+02
    407.0  8.25457e+02
    408.0  8.28639e+02
    409.0  8.31827e+02
    410.0  8.35020e+02
    411.0  8.38218e+02
    412.0  8.41422e+02
    413.0  8.44632e+02
    414.0  8.47848e+02
    415.0  8.51069e+02
    416.0  8.54296e+02
    417.0  8.57528e+02
    418.0  8.60766e+02
    419.0  8.64010e+02
    420.0  8.67260e+02
    421.0  8.70515e+02
    422.0  8.73776e+02
    423.0  8.77042e+02
    424.0  8.80314e+02
    425.0  8.83592e+02
    426.0  8.86876e+02
    427.0  8.90166e+02
    428.0  8.93461e+02
    429.0  8.96762e+02
    430.0  9.00069e+02
    431.0  9.03381e+02
    432.0  9.06699e+02
    433.0  9.10023e+02
    434.0  9.13353e+02
    435.0  9.16689e+02
    436.0  9.20030e+02
    437.0  9.23377e+02
    438.0  9.26730e+02
    439.0  9.30089e+02
    440.0  9.33454e+02
    441.0  9.36824e+02
    442.0  9.40200e+02
    443.0  9.43582e+02
    444.0  9.46971e+02
    445.0  9.50364e+02
    446.0  9.53764e+02
    447.0  9.57170e+02
    448.0  9.60581e+02
    449.0  9.63999e+02
    450.0  9.67422e+02
    451.0  9.70851e+02
    452.0  9.74286e+02
    453.0  9.77727e+02
    454.0  9.81174e+02
    455.0  9.84627e+02
    456.0  9.88086e+02
    457.0  9.91551e+02
    458.0  9.95022e+02
    459.0  9.98499e+02
    460.0  1.00198e+03
    461.0  1.00547e+03
    462.0  1.00896e+03
    463.0  1.01247e+03
    464.0  1.01597e+03
    465.0  1.01949e+03
    466.0  1.02300e+03
    467.0  1.02653e+03
    468.0  1.03006e+03
    469.0  1.03360e+03
    470.0  1.03714e+03
    471.0  1.04069e+03
    472.0  1.04424e+03
    473.0  1.04781e+03
    474.0  1.05137e+03
    475.0  1.05495e+03
    476.0  1.05853e+03
    477.0  1.06211e+03
    478.0  1.06570e+03
    479.0  1.06930e+03
    480.0  1.07290e+03
    481.0  1.07652e+03
    482.0  1.08013e+03
    483.0  1.08375e+03
    484.0  1.08738e+03
    485.0  1.09102e+03
    486.0  1.09466e+03
    487.0  1.09831e+03
    488.0  1.10196e+03
    489.0  1.10562e+03
    490.0  1.10929e+03
    491.0  1.11296e+03
    492.0  1.11664e+03
    493.0  1.12032e+03
    494.0  1.12401e+03
    495.0  1.12771e+03
    496.0  1.13141e+03
    497.0  1.13512e+03
    498.0  1.13884e+03
    499.0  1.14256e+03
    500.0  1.14629e+03
    501.0  1.15002e+03
    502.0  1.15377e+03
    503.0  1.15751e+03
    504.0  1.16127e+03
    505.0  1.16503e+03
    506.0  1.16879e+03
    507.0  1.17257e+03
    508.0  1.17635e+03
    509.0  1.18013e+03
    510.0  1.18393e+03
    511.0  1.18772e+03
    512.0  1.19153e+03
    513.0  1.19534e+03
    514.0  1.19916e+03
    515.0  1.20298e+03
    516.0  1.20681e+03
    517.0  1.21065e+03
    518.0  1.21450e+03
    519.0  1.21835e+03
    520.0  1.22220e+03
    521.0  1.22607e+03
    522.0  1.22994e+03
    523.0  1.23381e+03
    524.0  1.23770e+03
    525.0  1.24159e+03
    526.0  1.24548e+03
    527.0  1.24938e+03
    528.0  1.25329e+03
    529.0  1.25721e+03
    530.0  1.26113e+03
    531.0  1.26506e+03
    532.0  1.26900e+03
    533.0  1.27294e+03
    534.0  1.27689e+03
    535.0  1.28084e+03
    536.0  1.28480e+03
    537.0  1.28877e+03
    538.0  1.29275e+03
    539.0  1.29673e+03
    540.0  1.30072e+03
    541.0  1.30472e+03
    542.0  1.30872e+03
    543.0  1.31273e+03
    544.0  1.31674e+03
    545.0  1.32076e+03
    546.0  1.32479e+03
    547.0  1.32883e+03
    548.0  1.33287e+03
    549.0  1.33692e+03
    550.0  1.34098e+03
    551.0  1.34504e+03
    552.0  1.34911e+03
    553.0  1.35319e+03
    554.0  1.35727e+03
    555.0  1.36136e+03
    556.0  1.36546e+03
    557.0  1.36956e+03
    558.0  1.37367e+03
    559.0  1.37779e+03
    560.0  1.38191e+03
    561.0  1.38604e+03
    562.0  1.39018e+03
    563.0  1.39433e+03
    564.0  1.39848e+03
    565.0  1.40264e+03
    566.0  1.40681e+03
    567.0  1.41098e+03
    568.0  1.41516e+03
    569.0  1.41935e+03
    570.0  1.42354e+03
    571.0  1.42774e+03
    572.0  1.43195e+03
    573.0  1.43616e+03
    574.0  1.44038e+03
    575.0  1.44461e+03
    576.0  1.44885e+03
    577.0  1.45309e+03
    578.0  1.45734e+03
    579.0  1.46160e+03
    580.0  1.46586e+03
    581.0  1.47013e+03
    582.0  1.47441e+03
    583.0  1.47870e+03
    584.0  1.48299e+03
    585.0  1.48729e+03
    586.0  1.49160e+03
    587.0  1.49591e+03
    588.0  1.50023e+03
    589.0  1.50456e+03
    590.0  1.50890e+03
    591.0  1.51324e+03
    592.0  1.51759e+03
    593.0  1.52195e+03
    594.0  1.52631e+03
    595.0  1.53068e+03
    596.0  1.53506e+03
    597.0  1.53945e+03
    598.0  1.54384e+03
    599.0  1.54824e+03
    600.0  1.55265e+03
    601.0  1.55707e+03
    602.0  1.56149e+03
    603.0  1.56592e+03
    604.0  1.57036e+03
    605.0  1.57480e+03
    606.0  1.57925e+03
    607.0  1.58371e+03
    608.0  1.58818e+03
    609.0  1.59265e+03
    610.0  1.59714e+03
    611.0  1.60162e+03
    612.0  1.60612e+03
    613.0  1.61062e+03
    614.0  1.61514e+03
    615.0  1.61966e+03
    616.0  1.62418e+03
    617.0  1.62872e+03
    618.0  1.63326e+03
    619.0  1.63781e+03
    620.0  1.64236e+03
    621.0  1.64693e+03
    622.0  1.65150e+03
    623.0  1.65608e+03
    624.0  1.66066e+03
    625.0  1.66526e+03
    626.0  1.66986e+03
    627.0  1.67447e+03
    628.0  1.67908e+03
    629.0  1.68371e+03
    630.0  1.68834e+03
    631.0  1.69298e+03
    632.0  1.69763e+03
    633.0  1.70228e+03
    634.0  1.70694e+03
    635.0  1.71161e+03
    636.0  1.71629e+03
    637.0  1.72098e+03
    638.0  1.72567e+03
    639.0  1.73037e+03
    640.0  1.73508e+03
    641.0  1.73980e+03
    642.0  1.74452e+03
    643.0  1.74925e+03
    644.0  1.75399e+03
    645.0  1.75874e+03
    646.0  1.76350e+03
    647.0  1.76826e+03
    648.0  1.77303e+03
    649.0  1.77781e+03
    650.0  1.78260e+03
    651.0  1.78739e+03
    652.0  1.79220e+03
    653.0  1.79701e+03
    654.0  1.80182e+03
    655.0  1.80665e+03
    656.0  1.81149e+03
    657.0  1.81633e+03
    658.0  1.82118e+03
    659.0  1.82604e+03
    660.0  1.83090e+03
    661.0  1.83578e+03
    662.0  1.84066e+03
    663.0  1.84555e+03
    664.0  1.85045e+03
    665.0  1.85535e+03
    666.0  1.86027e+03
    667.0  1.86519e+03
    668.0  1.87012e+03
    669.0  1.87506e+03
    670.0  1.88000e+03
    671.0  1.88496e+03
    672.0  1.88992e+03
    673.0  1.89489e+03
    674.0  1.89987e+03
    675.0  1.90486e+03
    676.0  1.90985e+03
    677.0  1.91486e+03
    678.0  1.91987e+03
    679.0  1.92489e+03
    680.0  1.92992e+03
    681.0  1.93495e+03
    682.0  1.94000e+03
    683.0  1.94505e+03
    684.0  1.95011e+03
    685.0  1.95518e+03
    686.0  1.96026e+03
    687.0  1.96534e+03
    688.0  1.97044e+03
    689.0  1.97554e+03
    690.0  1.98065e+03
    691.0  1.98577e+03
    692.0  1.99090e+03
    693.0  1.99603e+03
    694.0  2.00118e+03
    695.0  2.00633e+03
    696.0  2.01149e+03
    697.0  2.01666e+03
    698.0  2.02184e+03
    699.0  2.02702e+03
    700.0  2.03222e+03
    701.0  2.03742e+03
    702.0  2.04263e+03
    703.0  2.04785e+03
    704.0  2.05308e+03
    705.0  2.05832e+03
    706.0  2.06357e+03
    707.0  2.06882e+03
    708.0  2.07408e+03
    709.0  2.07935e+03
    710.0  2.08463e+03
    711.0  2.08992e+03
    712.0  2.09522e+03
    713.0  2.10053e+03
    714.0  2.10584e+03
    715.0  2.11116e+03
    716.0  2.11649e+03
    717.0  2.12184e+03
    718.0  2.12718e+03
    719.0  2.13254e+03
    720.0  2.13791e+03
    721.0  2.14328e+03
    722.0  2.14867e+03
    723.0  2.15406e+03
    724.0  2.15946e+03
    725.0  2.16487e+03
    726.0  2.17029e+03
    727.0  2.17572e+03
    728.0  2.18116e+03
    729.0  2.18660e+03
    730.0  2.19206e+03
    731.0  2.19752e+03
    732.0  2.20299e+03
    733.0  2.20847e+03
    734.0  2.21396e+03
    735.0  2.21946e+03
    736.0  2.22497e+03
    737.0  2.23048e+03
    738.0  2.23601e+03
    739.0  2.24154e+03
    740.0  2.24709e+03
    741.0  2.25264e+03
    742.0  2.25820e+03
    743.0  2.26377e+03
    744.0  2.26935e+03
    745.0  2.27494e+03
    746.0  2.28054e+03
    747.0  2.28614e+03
    748.0  2.29176e+03
    749.0  2.29738e+03
    750.0  2.30302e+03
    751.0  2.30866e+03
    752.0  2.31431e+03
    753.0  2.31997e+03
    754.0  2.32564e+03
    755.0  2.33132e+03
    756.0  2.33701e+03
    757.0  2.34271e+03
    758.0  2.34841e+03
    759.0  2.35413e+03
    760.0  2.35986e+03
    761.0  2.36559e+03
    762.0  2.37133e+03
    763.0  2.37709e+03
    764.0  2.38285e+03
    765.0  2.38862e+03
    766.0  2.39440e+03
    767.0  2.40019e+03
    768.0  2.40599e+03
    769.0  2.41180e+03
    770.0  2.41762e+03
    771.0  2.42345e+03
    772.0  2.42928e+03
    773.0  2.43513e+03
    774.0  2.44099e+03
    775.0  2.44685e+03
    776.0  2.45273e+03
    777.0  2.45861e+03
    778.0  2.46450e+03
    779.0  2.47041e+03
    780.0  2.47632e+03
    781.0  2.48224e+03
    782.0  2.48817e+03
    783.0  2.49412e+03
    784.0  2.50007e+03
    785.0  2.50603e+03
    786.0  2.51200e+03
    787.0  2.51798e+03
    788.0  2.52397e+03
    789.0  2.52997e+03
    790.0  2.53597e+03
    791.0  2.54199e+03
    792.0  2.54802e+03
    793.0  2.55406e+03
    794.0  2.56010e+03
    795.0  2.56616e+03
    796.0  2.57223e+03
    797.0  2.57830e+03
    798.0  2.58439e+03
    799.0  2.59049e+03
    800.0  2.59659e+03
    801.0  2.60271e+03
    802.0  2.60883e+03
    803.0  2.61497e+03
    804.0  2.62111e+03
    805.0  2.62727e+03
    806.0  2.63343e+03
    807.0  2.63960e+03
    808.0  2.64579e+03
    809.0  2.65198e+03
    810.0  2.65819e+03
    811.0  2.66440e+03
    812.0  2.67062e+03
    813.0  2.67686e+03
    814.0  2.68310e+03
    815.0  2.68936e+03
    816.0  2.69562e+03
    817.0  2.70189e+03
    818.0  2.70818e+03
    819.0  2.71447e+03
    820.0  2.72078e+03
    821.0  2.72709e+03
    822.0  2.73341e+03
    823.0  2.73975e+03
    824.0  2.74609e+03
    825.0  2.75245e+03
    826.0  2.75881e+03
    827.0  2.76519e+03
    828.0  2.77157e+03
    829.0  2.77797e+03
    830.0  2.78437e+03
    831.0  2.79079e+03
    832.0  2.79721e+03
    833.0  2.80365e+03
    834.0  2.81009e+03
    835.0  2.81655e+03
    836.0  2.82302e+03
    837.0  2.82949e+03
    838.0  2.83598e+03
    839.0  2.84248e+03
    840.0  2.84899e+03
    841.0  2.85550e+03
    842.0  2.86203e+03
    843.0  2.86857e+03
    844.0  2.87512e+03
    845.0  2.88168e+03
    846.0  2.88825e+03
    847.0  2.89483e+03
    848.0  2.90142e+03
    849.0  2.90803e+03
    850.0  2.91464e+03
    851.0  2.92126e+03
    852.0  2.92789e+03
    853.0  2.93454e+03
    854.0  2.94119e+03
    855.0  2.94786e+03
    856.0  2.95453e+03
    857.0  2.96122e+03
    858.0  2.96791e+03
    859.0  2.97462e+03
    860.0  2.98134e+03
    861.0  2.98807e+03
    862.0  2.99481e+03
    863.0  3.00156e+03
    864.0  3.00832e+03
    865.0  3.01509e+03
    866.0  3.02187e+03
    867.0  3.02866e+03
